# r(a.u.)  R_2s  R_3s  R_4s  R_2p  R_3p
  1.00000000000000E-04   7.77879270562456E-02   3.84132830094440E-02   2.38661342840078E-02   9.21913238101776E-04   5.46714296127076E-04
  5.46702137335152E-02   1.32521478092732E-01   6.54172095278066E-02   4.06390182136683E-02   3.41414123871775E-03   2.02443054048324E-03
  1.09240427467030E-01   1.69552922602134E-01   8.36408161602973E-02   5.19494379255623E-02   7.15634511790389E-03   4.24248013461367E-03
  1.63810641200546E-01   1.92988835884542E-01   9.51040890955876E-02   5.90509290631604E-02   1.19128464086601E-02   7.06006149787588E-03
  2.18380854934061E-01   2.05957828492618E-01   1.01348327954970E-01   6.29004257238460E-02   1.75087325431206E-02   1.03721494725157E-02
  2.72951068667576E-01   2.10837923043667E-01   1.03547175058838E-01   6.42270075533463E-02   2.38123536518863E-02   1.40991666769797E-02
  3.27521282401091E-01   2.09438929631548E-01   1.02595829740407E-01   6.35871694173937E-02   3.07224832914347E-02   1.81794056941604E-02
  3.82091496134607E-01   2.03143905744071E-01   9.91803298217775E-02   6.14077576435388E-02   3.81590672462136E-02   2.25635705883980E-02
  4.36661709868122E-01   1.93016625181774E-01   9.38302253964161E-02   5.80186210917685E-02   4.60566745982967E-02   2.72109161398303E-02
  4.91231923601637E-01   1.79882157748499E-01   8.69580887049573E-02   5.36771048465263E-02   5.43599389515059E-02   3.20865645633315E-02
  5.45802137335152E-01   1.64386792456719E-01   7.88888967930715E-02   4.85862655235923E-02   6.30204385341205E-02   3.71596738822648E-02
  6.00372351068668E-01   1.47042383587860E-01   6.98817690729829E-02   4.29083454468424E-02   7.19946003009253E-02   4.24022124408858E-02
  6.54942564802183E-01   1.28259090461212E-01   6.01460044227039E-02   3.67747108671410E-02   8.12423220697511E-02   4.77881583097436E-02
  7.09512778535698E-01   1.08369537412088E-01   4.98529024831791E-02   3.02931748080394E-02   9.07260904764142E-02   5.32929918416334E-02
  7.64082992269213E-01   8.76466635105379E-02   3.91444839935478E-02   2.35533961009704E-02   1.00410435387013E-01   5.88933868410172E-02
  8.18653206002729E-01   6.63169457535672E-02   2.81399381528030E-02   1.66308684055357E-02   1.10261607813542E-01   6.45670333127810E-02
  8.73223419736244E-01   4.45702359115400E-02   1.69404073905623E-02   9.58987807857854E-03   1.20247402234762E-01   7.02925448422912E-02
  9.27793633469759E-01   2.25671200721069E-02   5.63255721520068E-03   2.48570881079886E-03   1.30337068685489E-01   7.60494181844056E-02
  9.82363847203274E-01   4.44465026081986E-04  -5.70874169631242E-03  -4.63370384041960E-03   1.40501277494175E-01   8.18180230488271E-02
  1.03693406093679E+00  -2.16803643255940E-02  -1.70183806591686E-02  -1.17265199375823E-02   1.50712111977529E-01   8.75796074595067E-02
  1.09150427467030E+00  -4.37062640294038E-02  -2.82394558091992E-02  -1.87560369067540E-02   1.60943073128525E-01   9.33163092571086E-02
  1.14607448840382E+00  -6.55458701151360E-02  -3.93220604034894E-02  -2.56899472131922E-02   1.71169086386840E-01   9.90111679139982E-02
  1.20064470213734E+00  -8.71235710054983E-02  -5.02223348990224E-02  -3.24997550796942E-02   1.81366504713450E-01   1.04648133288883E-01
  1.25521491587085E+00  -1.08373917467443E-01  -6.09017081873720E-02  -3.91603109369453E-02   1.91513104956585E-01   1.10212069591596E-01
  1.30978512960437E+00  -1.29240331119493E-01  -7.13262815562438E-02  -4.56494335989390E-02   2.01588076297256E-01   1.15688753897210E-01
  1.36435534333788E+00  -1.49674039227898E-01  -8.14663201341290E-02  -5.19475983479724E-02   2.11572000691182E-01   1.21064869216721E-01
  1.41892555707140E+00  -1.69633182889706E-01  -9.12958261219609E-02  -5.80376750435550E-02   2.21446825890671E-01   1.26327992524333E-01
  1.47349577080491E+00  -1.89082059734513E-01  -1.00792175024623E-01  -6.39047046587916E-02   2.31195831985479E-01   1.31466578348904E-01
  1.52806598453843E+00  -2.07990472448741E-01  -1.09935801092960E-01  -6.95357057486961E-02   2.40803592552611E-01   1.36469938622920E-01
  1.58263619827194E+00  -2.26333161804412E-01  -1.18709921802306E-01  -7.49195045962976E-02   2.50255931526314E-01   1.41328219491279E-01
  1.63720641200546E+00  -2.44089308232436E-01  -1.27100293810162E-01  -8.00465844029679E-02   2.59539876842888E-01   1.46032375744923E-01
  1.69177662573897E+00  -2.61242089878948E-01  -1.35094994731481E-01  -8.49089500620748E-02   2.68643611815410E-01   1.50574143482004E-01
  1.74634683947249E+00  -2.77778287927693E-01  -1.42684226446169E-01  -8.95000059049766E-02   2.77556425074414E-01   1.54946011525516E-01
  1.80091705320600E+00  -2.93687932054744E-01  -1.49860136655162E-01  -9.38144444258926E-02   2.86268659786779E-01   1.59141192050175E-01
  1.85548726693952E+00  -3.08963980415429E-01  -1.56616656133562E-01  -9.78481444425044E-02   2.94771662745700E-01   1.63153590798095E-01
  1.91005748067303E+00  -3.23602029699577E-01  -1.62949349667299E-01  -1.01598077479194E-01   3.03057733814883E-01   1.66977777195512E-01
  1.96462769440655E+00  -3.37600051639953E-01  -1.68855279057896E-01  -1.05062221403350E-01   3.11120076112377E-01   1.70608954623020E-01
  2.01919790814006E+00  -3.50958152999008E-01  -1.74332876877182E-01  -1.08239480526381E-01   3.18952747234655E-01   1.74042931039776E-01
  2.07376812187358E+00  -3.63678356547688E-01  -1.79381829878105E-01  -1.11129611517393E-01   3.26550611749410E-01   1.77276090117895E-01
  2.12833833560709E+00  -3.75764400927909E-01  -1.84002971139348E-01  -1.13733154581209E-01   3.33909295125085E-01   1.80305363006108E-01
  2.18290854934061E+00  -3.87221557586859E-01  -1.88198180154433E-01  -1.16051369432640E-01   3.41025139215338E-01   1.83128200811028E-01
  2.23747876307412E+00  -3.98056463207621E-01  -1.91970290180866E-01  -1.18086175661800E-01   3.47895159376017E-01   1.85742547859239E-01
  2.29204897680764E+00  -4.08276966252112E-01  -1.95323002248851E-01  -1.19840097135524E-01   3.54517003259647E-01   1.88146815783138E-01
  2.34661919054116E+00  -4.17891986389915E-01  -1.98260805297646E-01  -1.21316210120725E-01   3.60888911306470E-01   1.90339858457166E-01
  2.40118940427467E+00  -4.26911385718302E-01  -2.00788901964361E-01  -1.22518094849278E-01   3.67009678930820E-01   1.92320947798246E-01
  2.45575961800819E+00  -4.35345850790478E-01  -2.02913139597843E-01  -1.23449790272284E-01   3.72878620385956E-01   1.94089750434162E-01
  2.51032983174170E+00  -4.43206784564953E-01  -2.04639946111121E-01  -1.24115751775735E-01   3.78495534278579E-01   1.95646305235845E-01
  2.56490004547522E+00  -4.50506207472323E-01  -2.05976270321195E-01  -1.24520811650377E-01   3.83860670695446E-01   1.96991001703597E-01
  2.61947025920873E+00  -4.57256666868801E-01  -2.06929526455884E-01  -1.24670142126792E-01   3.88974699898124E-01   1.98124559192835E-01
  2.67404047294225E+00  -4.63471154210495E-01  -2.07507542534661E-01  -1.24569220802698E-01   3.93838682537506E-01   1.99048006961703E-01
  2.72861068667576E+00  -4.69163029339951E-01  -2.07718512354694E-01  -1.24223798303728E-01   3.98454041336811E-01   1.99762665020542E-01
  2.78318090040928E+00  -4.74345951328042E-01  -2.07570950834962E-01  -1.23639868031633E-01   4.02822534190121E-01   2.00270125761633E-01
  2.83775111414279E+00  -4.79033815360600E-01  -2.07073652490851E-01  -1.22823637865320E-01   4.06946228622735E-01   2.00572236346623E-01
  2.89232132787631E+00  -4.83240695201062E-01  -2.06235652829223E-01  -1.21781503690388E-01   4.10827477559562E-01   2.00671081828440E-01
  2.94689154160982E+00  -4.86980790798303E-01  -2.05066192469927E-01  -1.20520024642218E-01   4.14468896348283E-01   2.00568968984282E-01
  3.00146175534334E+00  -4.90268380643242E-01  -2.03574683814209E-01  -1.19045899956093E-01   4.17873340984847E-01   2.00268410836288E-01
  3.05603196907685E+00  -4.93117778509140E-01  -2.01770680093678E-01  -1.17365947325567E-01   4.21043887490086E-01   1.99772111836676E-01
  3.11060218281037E+00  -4.95543294239086E-01  -1.99663846645549E-01  -1.15487082677307E-01   4.23983812387548E-01   1.99082953694514E-01
  3.16517239654388E+00  -4.97559198270216E-01  -1.97263934270884E-01  -1.13416301277085E-01   4.26696574234207E-01   1.98203981821719E-01
  3.21974261027740E+00  -4.99179689608112E-01  -1.94580754542636E-01  -1.11160660087438E-01   4.29185796157266E-01   1.97138392376403E-01
  3.27431282401091E+00  -5.00418866986644E-01  -1.91624156939571E-01  -1.08727261302927E-01   4.31455249351924E-01   1.95889519882247E-01
  3.32888303774443E+00  -5.01290702968555E-01  -1.88404007690612E-01  -1.06123236993853E-01   4.33508837496653E-01   1.94460825403183E-01
  3.38345325147794E+00  -5.01809020760489E-01  -1.84930170221969E-01  -1.03355734793852E-01   4.35350582044172E-01   1.92855885253278E-01
  3.43802346521146E+00  -5.01987473533038E-01  -1.81212487106614E-01  -1.00431904570928E-01   4.36984608347950E-01   1.91078380222318E-01
  3.49259367894498E+00  -5.01839526051918E-01  -1.77260763422289E-01  -9.73588860253989E-02   4.38415132585680E-01   1.89132085298228E-01
  3.54716389267849E+00  -5.01378438440727E-01  -1.73084751430339E-01  -9.41437971617139E-02   4.39646449442753E-01   1.87020859868048E-01
  3.60173410641201E+00  -5.00617251908855E-01  -1.68694136493340E-01  -9.07937235844530E-02   4.40682920520246E-01   1.84748638379810E-01
  3.65630432014552E+00  -4.99568776290328E-01  -1.64098524154704E-01  -8.73157085718043E-02   4.41528963433458E-01   1.82319421448216E-01
  3.71087453387904E+00  -4.98245579250554E-01  -1.59307428308306E-01  -8.37167438826605E-02   4.42189041568441E-01   1.79737267387626E-01
  3.76544474761255E+00  -4.96659977028317E-01  -1.54330260390658E-01  -8.00037612560754E-02   4.42667654465323E-01   1.77006284156382E-01
  3.82001496134607E+00  -4.94824026589944E-01  -1.49176319532340E-01  -7.61836245642456E-02   4.42969328798596E-01   1.74130621697062E-01
  3.87458517507958E+00  -4.92749519081424E-01  -1.43854783609268E-01  -7.22631225824392E-02   4.43098609925767E-01   1.71114464657754E-01
  3.92915538881310E+00  -4.90447974472478E-01  -1.38374701137991E-01  -6.82489623413892E-02   4.43060053977013E-01   1.67962025479975E-01
  3.98372560254661E+00  -4.87930637294181E-01  -1.32744983962579E-01  -6.41477630296271E-02   4.42858220459671E-01   1.64677537839317E-01
  4.03829581628013E+00  -4.85208473378762E-01  -1.26974400683780E-01  -5.99660504150539E-02   4.42497665352493E-01   1.61265250425392E-01
  4.09286603001364E+00  -4.82292167516771E-01  -1.21071570784061E-01  -5.57102517567534E-02   4.41982934665689E-01   1.57729421048102E-01
  4.14743624374716E+00  -4.79192121952869E-01  -1.15044959404889E-01  -5.13866911796448E-02   4.41318558443832E-01   1.54074311057701E-01
  4.20200645748067E+00  -4.75918455647091E-01  -1.08902872735132E-01  -4.70015854860640E-02   4.40509045189671E-01   1.50304180066530E-01
  4.25657667121419E+00  -4.72481004233735E-01  -1.02653453971896E-01  -4.25610403797622E-02   4.39558876687862E-01   1.46423280960736E-01
  4.31114688494770E+00  -4.68889320614814E-01  -9.63046798173056E-02  -3.80710470791210E-02   4.38472503208554E-01   1.42435855190671E-01
  4.36571709868122E+00  -4.65152676129607E-01  -8.98643574768731E-02  -3.35374792976163E-02   4.37254339071606E-01   1.38346128329049E-01
  4.42028731241473E+00  -4.61280062246007E-01  -8.33401221270508E-02  -2.89660905707197E-02   4.35908758553107E-01   1.34158305886332E-01
  4.47485752614825E+00  -4.57280192723284E-01  -7.67394348214138E-02  -2.43625119095154E-02   4.34440092116620E-01   1.29876569373131E-01
  4.52942773988176E+00  -4.53161506199557E-01  -7.00695808066596E-02  -1.97322497623363E-02   4.32852622952381E-01   1.25505072599811E-01
  4.58399795361528E+00  -4.48932169160632E-01  -6.33376682212429E-02  -1.50806842666874E-02   4.31150583808409E-01   1.21047938203784E-01
  4.63856816734879E+00  -4.44600079250037E-01  -5.65506271510004E-02  -1.04130677746380E-02   4.29338154098204E-01   1.16509254395299E-01
  4.69313838108231E+00  -4.40172868883050E-01  -4.97152090175650E-02  -5.73452363572186E-03   4.27419457270365E-01   1.11893071912889E-01
  4.74770859481583E+00  -4.35657909130219E-01  -4.28379862767337E-02  -1.05004522219601E-03   4.25398558426147E-01   1.07203401179886E-01
  4.80227880854934E+00  -4.31062313838492E-01  -3.59253524052342E-02   3.63550481772119E-03   4.23279462171579E-01   1.02444209653761E-01
  4.85684902228286E+00  -4.26392943960398E-01  -2.89835221555466E-02   8.31739509228990E-03   4.21066110691362E-01   9.76194193602845E-02
  4.91141923601637E+00  -4.21656412064003E-01  -2.20185320595790E-02   1.29910257973347E-02   4.18762382032365E-01   9.27329046048090E-02
  4.96598944974989E+00  -4.16859086998397E-01  -1.50362411630711E-02   1.76519288582959E-02   4.16372088585051E-01   8.77884898532304E-02
  5.02055966348340E+00  -4.12007098691426E-01  -8.04233197361948E-03   2.22957678949487E-02   4.13898975751731E-01   8.27899477754410E-02
  5.07512987721692E+00  -4.07106343058174E-01  -1.04231160617773E-03   2.69183380199099E-02   4.11346720791029E-01   7.77409974443387E-02
  5.12970009095043E+00  -4.02162487000402E-01   5.95848688920759E-03   3.15155654814976E-02   4.08718931828419E-01   7.26453026836987E-02
  5.18427030468395E+00  -3.97180973478688E-01   1.29549030318046E-02   3.60835071609832E-02   4.06019147023191E-01   6.75064705584470E-02
  5.23884051841746E+00  -3.92167026640512E-01   1.99419472603164E-02   4.06183499337775E-02   4.03250833882612E-01   6.23280500011002E-02
  5.29341073215098E+00  -3.87125656988864E-01   2.69147991415150E-02   4.51164099036178E-02   4.00417388714507E-01   5.71135305683567E-02
  5.34798094588449E+00  -3.82061666577244E-01   3.38688054494630E-02   4.95741315183741E-02   3.97522136209865E-01   5.18663413220356E-02
  5.40255115961801E+00  -3.76979654218102E-01   4.07994781267105E-02   5.39880865756626E-02   3.94568329147499E-01   4.65898498287642E-02
  5.45712137335152E+00  -3.71884020692860E-01   4.77024921382035E-02   5.83549731260497E-02   3.91559148213140E-01   4.12873612730147E-02
  5.51169158708504E+00  -3.66778973952722E-01   5.45736832280233E-02   6.26716142812410E-02   3.88497701925712E-01   3.59621176782817E-02
  5.56626180081855E+00  -3.61668534300389E-01   6.14090455884938E-02   6.69349569342842E-02   3.85387026663890E-01   3.06172972313803E-02
  5.62083201455207E+00  -3.56556539543728E-01   6.82047294506397E-02   7.11420703984590E-02   3.82230086786360E-01   2.52560137050218E-02
  5.67540222828558E+00  -3.51446650113269E-01   7.49570386044562E-02   7.52901449712001E-02   3.79029774839521E-01   1.98813159740021E-02
  5.72997244201910E+00  -3.46342354136158E-01   8.16624278569522E-02   7.93764904290747E-02   3.75788911846687E-01   1.44961876205026E-02
  5.78454265575261E+00  -3.41246972459938E-01   8.83175004354614E-02   8.33985344595385E-02   3.72510247673101E-01   9.10354662417126E-03
  5.83911286948613E+00  -3.36163663620192E-01   9.49190053432671E-02   8.73538210349007E-02   3.69196461461399E-01   3.70624513280579E-03
  5.89368308321964E+00  -3.31095428746701E-01   1.01463834674166E-01   9.12400087336577E-02   3.65850162132388E-01  -1.69293069038311E-03
  5.94825329695316E+00  -3.26045116403357E-01   1.07949020892196E-01   9.50548690140890E-02   3.62473888946278E-01  -7.09126074680399E-03
  6.00282351068668E+00  -3.21015427357595E-01   1.14371734082366E-01   9.87962844447617E-02   3.59070112119746E-01  -1.24860910135435E-02
  6.05739372442019E+00  -3.16008919275636E-01   1.20729279177887E-01   1.02462246896349E-01   3.55641233494441E-01  -1.78748334890450E-02
  6.11196393815371E+00  -3.11028011340253E-01   1.27019093169022E-01   1.06050855698942E-01   3.52189587252775E-01  -2.32549660768644E-02
  6.16653415188722E+00  -3.06074988788239E-01   1.33238742298400E-01   1.09560315768817E-01   3.48717440677031E-01  -2.86240324108323E-02
  6.22110436562074E+00  -3.01152007365142E-01   1.39385919247287E-01   1.12988935708411E-01   3.45226994948066E-01  -3.39796416248252E-02
  6.27567457935425E+00  -2.96261097695186E-01   1.45458440317047E-01   1.16335125883063E-01   3.41720385980032E-01  -3.93194680702252E-02
  6.33024479308777E+00  -2.91404169564653E-01   1.51454242609727E-01   1.19597396477893E-01   3.38199685287774E-01  -4.46412509840329E-02
  6.38481500682128E+00  -2.86583016117322E-01   1.57371381211462E-01   1.22774355537995E-01   3.34666900883702E-01  -4.99427941104814E-02
  6.43938522055480E+00  -2.81799317960819E-01   1.63208026382122E-01   1.25864706994978E-01   3.31123978201132E-01  -5.52219652788918E-02
  6.49395543428831E+00  -2.77054647183037E-01   1.68962460754411E-01   1.28867248682682E-01   3.27572801041248E-01  -6.04766959404008E-02
  6.54852564802183E+00  -2.72350471278010E-01   1.74633076545398E-01   1.31780870344797E-01   3.24015192540976E-01  -6.57049806660916E-02
  6.60309586175534E+00  -2.67688156980855E-01   1.80218372783234E-01   1.34604551636892E-01   3.20452916159243E-01  -7.09048766089562E-02
  6.65766607548886E+00  -2.63068974011600E-01   1.85716952551630E-01   1.37337360125288E-01   3.16887676679199E-01  -7.60745029320243E-02
  6.71223628922237E+00  -2.58494098727923E-01   1.91127520254481E-01   1.39978449285024E-01   3.13321121224149E-01  -8.12120402048967E-02
  6.76680650295589E+00  -2.53964617686982E-01   1.96448878902813E-01   1.42527056499060E-01   3.09754840285049E-01  -8.63157297708350E-02
  6.82137671668940E+00  -2.49481531116677E-01   2.01679927426104E-01   1.44982501060717E-01   3.06190368757554E-01  -9.13838730864701E-02
  6.87594693042292E+00  -2.45045756296856E-01   2.06819658009823E-01   1.47344182181266E-01   3.02629186986730E-01  -9.64148310361079E-02
  6.93051714415643E+00  -2.40658130851062E-01   2.11867153460925E-01   1.49611577004419E-01   2.99072721817628E-01  -1.01407023222530E-01
  6.98508735788995E+00  -2.36319415949590E-01   2.16821584602852E-01   1.51784238629421E-01   2.95522347650075E-01  -1.06358927236108E-01
  7.03965757162347E+00  -2.32030299424692E-01   2.21682207701483E-01   1.53861794144287E-01   2.91979387496074E-01  -1.11269077903974E-01
  7.09422778535698E+00  -2.27791398798879E-01   2.26448361923336E-01   1.55843942670672E-01   2.88445114038376E-01  -1.16136066520921E-01
  7.14879799909050E+00  -2.23603264227370E-01   2.31119466827211E-01   1.57730453421728E-01   2.84920750688808E-01  -1.20958540063618E-01
  7.20336821282401E+00  -2.19466381355785E-01   2.35695019890331E-01   1.59521163774256E-01   2.81407472645093E-01  -1.25735200389694E-01
  7.25793842655753E+00  -2.15381174094284E-01   2.40174594069941E-01   1.61215977356334E-01   2.77906407944931E-01  -1.30464803423128E-01
  7.31250864029104E+00  -2.11348007309390E-01   2.44557835401233E-01   1.62814862151553E-01   2.74418638516241E-01  -1.35146158327364E-01
  7.36707885402456E+00  -2.07367189434800E-01   2.48844460632336E-01   1.64317848620879E-01   2.70945201222478E-01  -1.39778126667482E-01
  7.42164906775807E+00  -2.03438975002532E-01   2.53034254897063E-01   1.65725027843137E-01   2.67487088902087E-01  -1.44359621562707E-01
  7.47621928149159E+00  -1.99563567095798E-01   2.57127069425960E-01   1.67036549674979E-01   2.64045251401151E-01  -1.48889606830469E-01
  7.53078949522510E+00  -1.95741119725028E-01   2.61122819296199E-01   1.68252620931184E-01   2.60620596598421E-01  -1.53367096123195E-01
  7.58535970895862E+00  -1.91971740128494E-01   2.65021481220697E-01   1.69373503586044E-01   2.57213991421925E-01  -1.57791152058929E-01
  7.63992992269213E+00  -1.88255490999024E-01   2.68823091376839E-01   1.70399512996534E-01   2.53826262856449E-01  -1.62160885346854E-01
  7.69450013642565E+00  -1.84592392638284E-01   2.72527743275071E-01   1.71331016147911E-01   2.50458198941234E-01  -1.66475453908719E-01
  7.74907035015916E+00  -1.80982425040168E-01   2.76135585667592E-01   1.72168429922325E-01   2.47110549757258E-01  -1.70734061997139E-01
  7.80364056389268E+00  -1.77425529904788E-01   2.79646820497289E-01   1.72912219390977E-01   2.43784028403571E-01  -1.74935959311675E-01
