# r(a.u.)  R_2s  R_3s  R_4s  R_2p  R_3p
  1.00000000000000e-04   7.77879270562456e-02   3.84132830094440e-02   2.38661342840078e-02   9.21913238101776e-04   5.46714296127076e-04
  5.46702137335152e-02   1.32521478092732e-01   6.54172095278066e-02   4.06390182136683e-02   3.41414123871775e-03   2.02443054048324e-03
  1.09240427467030e-01   1.69552922602134e-01   8.36408161602973e-02   5.19494379255623e-02   7.15634511790389e-03   4.24248013461367e-03
  1.63810641200546e-01   1.92988835884542e-01   9.51040890955876e-02   5.90509290631604e-02   1.19128464086601e-02   7.06006149787588e-03
  2.18380854934061e-01   2.05957828492618e-01   1.01348327954970e-01   6.29004257238460e-02   1.75087325431206e-02   1.03721494725157e-02
  2.72951068667576e-01   2.10837923043667e-01   1.03547175058838e-01   6.42270075533463e-02   2.38123536518863e-02   1.40991666769797e-02
  3.27521282401091e-01   2.09438929631548e-01   1.02595829740407e-01   6.35871694173937e-02   3.07224832914347e-02   1.81794056941604e-02
  3.82091496134607e-01   2.03143905744071e-01   9.91803298217775e-02   6.14077576435388e-02   3.81590672462136e-02   2.25635705883980e-02
  4.36661709868122e-01   1.93016625181774e-01   9.38302253964161e-02   5.80186210917685e-02   4.60566745982967e-02   2.72109161398303e-02
  4.91231923601637e-01   1.79882157748499e-01   8.69580887049573e-02   5.36771048465263e-02   5.43599389515059e-02   3.20865645633315e-02
  5.45802137335152e-01   1.64386792456719e-01   7.88888967930715e-02   4.85862655235923e-02   6.30204385341205e-02   3.71596738822648e-02
  6.00372351068668e-01   1.47042383587860e-01   6.98817690729829e-02   4.29083454468424e-02   7.19946003009253e-02   4.24022124408858e-02
  6.54942564802183e-01   1.28259090461212e-01   6.01460044227039e-02   3.67747108671410e-02   8.12423220697511e-02   4.77881583097436e-02
  7.09512778535698e-01   1.08369537412088e-01   4.98529024831791e-02   3.02931748080394e-02   9.07260904764142e-02   5.32929918416334e-02
  7.64082992269213e-01   8.76466635105379e-02   3.91444839935478e-02   2.35533961009704e-02   1.00410435387013e-01   5.88933868410172e-02
  8.18653206002729e-01   6.63169457535672e-02   2.81399381528030e-02   1.66308684055357e-02   1.10261607813542e-01   6.45670333127810e-02
  8.73223419736244e-01   4.45702359115400e-02   1.69404073905623e-02   9.58987807857854e-03   1.20247402234762e-01   7.02925448422912e-02
  9.27793633469759e-01   2.25671200721069e-02   5.63255721520068e-03   2.48570881079886e-03   1.30337068685489e-01   7.60494181844056e-02
  9.82363847203274e-01   4.44465026081986e-04  -5.70874169631242e-03  -4.63370384041960e-03   1.40501277494175e-01   8.18180230488271e-02
  1.03693406093679e+00  -2.16803643255940e-02  -1.70183806591686e-02  -1.17265199375823e-02   1.50712111977529e-01   8.75796074595067e-02
  1.09150427467030e+00  -4.37062640294038e-02  -2.82394558091992e-02  -1.87560369067540e-02   1.60943073128525e-01   9.33163092571086e-02
  1.14607448840382e+00  -6.55458701151360e-02  -3.93220604034894e-02  -2.56899472131922e-02   1.71169086386840e-01   9.90111679139982e-02
  1.20064470213734e+00  -8.71235710054983e-02  -5.02223348990224e-02  -3.24997550796942e-02   1.81366504713450e-01   1.04648133288883e-01
  1.25521491587085e+00  -1.08373917467443e-01  -6.09017081873720e-02  -3.91603109369453e-02   1.91513104956585e-01   1.10212069591596e-01
  1.30978512960437e+00  -1.29240331119493e-01  -7.13262815562438e-02  -4.56494335989390e-02   2.01588076297256e-01   1.15688753897210e-01
  1.36435534333788e+00  -1.49674039227898e-01  -8.14663201341290e-02  -5.19475983479724e-02   2.11572000691182e-01   1.21064869216721e-01
  1.41892555707140e+00  -1.69633182889706e-01  -9.12958261219609e-02  -5.80376750435550e-02   2.21446825890671e-01   1.26327992524333e-01
  1.47349577080491e+00  -1.89082059734513e-01  -1.00792175024623e-01  -6.39047046587916e-02   2.31195831985479e-01   1.31466578348904e-01
  1.52806598453843e+00  -2.07990472448741e-01  -1.09935801092960e-01  -6.95357057486961e-02   2.40803592552611e-01   1.36469938622920e-01
  1.58263619827194e+00  -2.26333161804412e-01  -1.18709921802306e-01  -7.49195045962976e-02   2.50255931526314e-01   1.41328219491279e-01
  1.63720641200546e+00  -2.44089308232436e-01  -1.27100293810162e-01  -8.00465844029679e-02   2.59539876842888e-01   1.46032375744923e-01
  1.69177662573897e+00  -2.61242089878948e-01  -1.35094994731481e-01  -8.49089500620748e-02   2.68643611815410e-01   1.50574143482004e-01
  1.74634683947249e+00  -2.77778287927693e-01  -1.42684226446169e-01  -8.95000059049766e-02   2.77556425074414e-01   1.54946011525516e-01
  1.80091705320600e+00  -2.93687932054744e-01  -1.49860136655162e-01  -9.38144444258926e-02   2.86268659786779e-01   1.59141192050175e-01
  1.85548726693952e+00  -3.08963980415429e-01  -1.56616656133562e-01  -9.78481444425044e-02   2.94771662745700e-01   1.63153590798095e-01
  1.91005748067303e+00  -3.23602029699577e-01  -1.62949349667299e-01  -1.01598077479194e-01   3.03057733814883e-01   1.66977777195512e-01
  1.96462769440655e+00  -3.37600051639953e-01  -1.68855279057896e-01  -1.05062221403350e-01   3.11120076112377e-01   1.70608954623020e-01
  2.01919790814006e+00  -3.50958152999008e-01  -1.74332876877182e-01  -1.08239480526381e-01   3.18952747234655e-01   1.74042931039776e-01
  2.07376812187358e+00  -3.63678356547688e-01  -1.79381829878105e-01  -1.11129611517393e-01   3.26550611749410e-01   1.77276090117895e-01
  2.12833833560709e+00  -3.75764400927909e-01  -1.84002971139348e-01  -1.13733154581209e-01   3.33909295125085e-01   1.80305363006108e-01
  2.18290854934061e+00  -3.87221557586859e-01  -1.88198180154433e-01  -1.16051369432640e-01   3.41025139215338e-01   1.83128200811028e-01
  2.23747876307412e+00  -3.98056463207621e-01  -1.91970290180866e-01  -1.18086175661800e-01   3.47895159376017e-01   1.85742547859239e-01
  2.29204897680764e+00  -4.08276966252112e-01  -1.95323002248851e-01  -1.19840097135524e-01   3.54517003259647e-01   1.88146815783138e-01
  2.34661919054116e+00  -4.17891986389915e-01  -1.98260805297646e-01  -1.21316210120725e-01   3.60888911306470e-01   1.90339858457166e-01
  2.40118940427467e+00  -4.26911385718302e-01  -2.00788901964361e-01  -1.22518094849278e-01   3.67009678930820e-01   1.92320947798246e-01
  2.45575961800819e+00  -4.35345850790478e-01  -2.02913139597843e-01  -1.23449790272284e-01   3.72878620385956e-01   1.94089750434162e-01
  2.51032983174170e+00  -4.43206784564953e-01  -2.04639946111121e-01  -1.24115751775735e-01   3.78495534278579e-01   1.95646305235845e-01
  2.56490004547522e+00  -4.50506207472323e-01  -2.05976270321195e-01  -1.24520811650377e-01   3.83860670695446e-01   1.96991001703597e-01
  2.61947025920873e+00  -4.57256666868801e-01  -2.06929526455884e-01  -1.24670142126792e-01   3.88974699898124e-01   1.98124559192835e-01
  2.67404047294225e+00  -4.63471154210495e-01  -2.07507542534661e-01  -1.24569220802698e-01   3.93838682537506e-01   1.99048006961703e-01
  2.72861068667576e+00  -4.69163029339951e-01  -2.07718512354694e-01  -1.24223798303728e-01   3.98454041336811e-01   1.99762665020542e-01
  2.78318090040928e+00  -4.74345951328042e-01  -2.07570950834962e-01  -1.23639868031633e-01   4.02822534190121e-01   2.00270125761633e-01
  2.83775111414279e+00  -4.79033815360600e-01  -2.07073652490851e-01  -1.22823637865320e-01   4.06946228622735e-01   2.00572236346623e-01
  2.89232132787631e+00  -4.83240695201062e-01  -2.06235652829223e-01  -1.21781503690388e-01   4.10827477559562e-01   2.00671081828440e-01
  2.94689154160982e+00  -4.86980790798303e-01  -2.05066192469927e-01  -1.20520024642218e-01   4.14468896348283e-01   2.00568968984282e-01
  3.00146175534334e+00  -4.90268380643242e-01  -2.03574683814209e-01  -1.19045899956093e-01   4.17873340984847e-01   2.00268410836288e-01
  3.05603196907685e+00  -4.93117778509140e-01  -2.01770680093678e-01  -1.17365947325567e-01   4.21043887490086e-01   1.99772111836676e-01
  3.11060218281037e+00  -4.95543294239086e-01  -1.99663846645549e-01  -1.15487082677307e-01   4.23983812387548e-01   1.99082953694514e-01
  3.16517239654388e+00  -4.97559198270216e-01  -1.97263934270884e-01  -1.13416301277085e-01   4.26696574234207e-01   1.98203981821719e-01
  3.21974261027740e+00  -4.99179689608112e-01  -1.94580754542636e-01  -1.11160660087438e-01   4.29185796157266e-01   1.97138392376403e-01
  3.27431282401091e+00  -5.00418866986644e-01  -1.91624156939571e-01  -1.08727261302927e-01   4.31455249351924e-01   1.95889519882247e-01
  3.32888303774443e+00  -5.01290702968555e-01  -1.88404007690612e-01  -1.06123236993853e-01   4.33508837496653e-01   1.94460825403183e-01
  3.38345325147794e+00  -5.01809020760489e-01  -1.84930170221969e-01  -1.03355734793852e-01   4.35350582044172e-01   1.92855885253278e-01
  3.43802346521146e+00  -5.01987473533038e-01  -1.81212487106614e-01  -1.00431904570928e-01   4.36984608347950e-01   1.91078380222318e-01
  3.49259367894498e+00  -5.01839526051918e-01  -1.77260763422289e-01  -9.73588860253989e-02   4.38415132585680e-01   1.89132085298228e-01
  3.54716389267849e+00  -5.01378438440727e-01  -1.73084751430339e-01  -9.41437971617139e-02   4.39646449442753e-01   1.87020859868048e-01
  3.60173410641201e+00  -5.00617251908855e-01  -1.68694136493340e-01  -9.07937235844530e-02   4.40682920520246e-01   1.84748638379810e-01
  3.65630432014552e+00  -4.99568776290328e-01  -1.64098524154704e-01  -8.73157085718043e-02   4.41528963433458e-01   1.82319421448216e-01
  3.71087453387904e+00  -4.98245579250554e-01  -1.59307428308306e-01  -8.37167438826605e-02   4.42189041568441e-01   1.79737267387626e-01
  3.76544474761255e+00  -4.96659977028317e-01  -1.54330260390658e-01  -8.00037612560754e-02   4.42667654465323e-01   1.77006284156382e-01
  3.82001496134607e+00  -4.94824026589944e-01  -1.49176319532340e-01  -7.61836245642456e-02   4.42969328798596e-01   1.74130621697062e-01
  3.87458517507958e+00  -4.92749519081424e-01  -1.43854783609268e-01  -7.22631225824392e-02   4.43098609925767e-01   1.71114464657754e-01
  3.92915538881310e+00  -4.90447974472478e-01  -1.38374701137991e-01  -6.82489623413892e-02   4.43060053977013e-01   1.67962025479975e-01
  3.98372560254661e+00  -4.87930637294181e-01  -1.32744983962579e-01  -6.41477630296271e-02   4.42858220459671e-01   1.64677537839317e-01
  4.03829581628013e+00  -4.85208473378762e-01  -1.26974400683780e-01  -5.99660504150539e-02   4.42497665352493e-01   1.61265250425392e-01
  4.09286603001364e+00  -4.82292167516771e-01  -1.21071570784061e-01  -5.57102517567534e-02   4.41982934665689e-01   1.57729421048102e-01
  4.14743624374716e+00  -4.79192121952869e-01  -1.15044959404889e-01  -5.13866911796448e-02   4.41318558443832e-01   1.54074311057701e-01
  4.20200645748067e+00  -4.75918455647091e-01  -1.08902872735132e-01  -4.70015854860640e-02   4.40509045189671e-01   1.50304180066530e-01
  4.25657667121419e+00  -4.72481004233735e-01  -1.02653453971896e-01  -4.25610403797622e-02   4.39558876687862e-01   1.46423280960736e-01
  4.31114688494770e+00  -4.68889320614814e-01  -9.63046798173056e-02  -3.80710470791210e-02   4.38472503208554e-01   1.42435855190671e-01
  4.36571709868122e+00  -4.65152676129607e-01  -8.98643574768731e-02  -3.35374792976163e-02   4.37254339071606e-01   1.38346128329049e-01
  4.42028731241473e+00  -4.61280062246007e-01  -8.33401221270508e-02  -2.89660905707197e-02   4.35908758553107e-01   1.34158305886332e-01
  4.47485752614825e+00  -4.57280192723284e-01  -7.67394348214138e-02  -2.43625119095154e-02   4.34440092116620e-01   1.29876569373131e-01
  4.52942773988176e+00  -4.53161506199557e-01  -7.00695808066596e-02  -1.97322497623363e-02   4.32852622952381e-01   1.25505072599811e-01
  4.58399795361528e+00  -4.48932169160632e-01  -6.33376682212429e-02  -1.50806842666874e-02   4.31150583808409e-01   1.21047938203784e-01
  4.63856816734879e+00  -4.44600079250037e-01  -5.65506271510004e-02  -1.04130677746380e-02   4.29338154098204e-01   1.16509254395299e-01
  4.69313838108231e+00  -4.40172868883050e-01  -4.97152090175650e-02  -5.73452363572186e-03   4.27419457270365e-01   1.11893071912889e-01
  4.74770859481583e+00  -4.35657909130219e-01  -4.28379862767337e-02  -1.05004522219601e-03   4.25398558426147e-01   1.07203401179886e-01
  4.80227880854934e+00  -4.31062313838492e-01  -3.59253524052342e-02   3.63550481772119e-03   4.23279462171579e-01   1.02444209653761e-01
  4.85684902228286e+00  -4.26392943960398e-01  -2.89835221555466e-02   8.31739509228990e-03   4.21066110691362e-01   9.76194193602845e-02
  4.91141923601637e+00  -4.21656412064003e-01  -2.20185320595790e-02   1.29910257973347e-02   4.18762382032365e-01   9.27329046048090e-02
  4.96598944974989e+00  -4.16859086998397e-01  -1.50362411630711e-02   1.76519288582959e-02   4.16372088585051e-01   8.77884898532304e-02
  5.02055966348340e+00  -4.12007098691426e-01  -8.04233197361948e-03   2.22957678949487e-02   4.13898975751731e-01   8.27899477754410e-02
  5.07512987721692e+00  -4.07106343058174e-01  -1.04231160617773e-03   2.69183380199099e-02   4.11346720791029e-01   7.77409974443387e-02
  5.12970009095043e+00  -4.02162487000402e-01   5.95848688920759e-03   3.15155654814976e-02   4.08718931828419e-01   7.26453026836987e-02
  5.18427030468395e+00  -3.97180973478688e-01   1.29549030318046e-02   3.60835071609832e-02   4.06019147023191e-01   6.75064705584470e-02
  5.23884051841746e+00  -3.92167026640512e-01   1.99419472603164e-02   4.06183499337775e-02   4.03250833882612e-01   6.23280500011002e-02
  5.29341073215098e+00  -3.87125656988864e-01   2.69147991415150e-02   4.51164099036178e-02   4.00417388714507e-01   5.71135305683567e-02
  5.34798094588449e+00  -3.82061666577244e-01   3.38688054494630e-02   4.95741315183741e-02   3.97522136209865e-01   5.18663413220356e-02
  5.40255115961801e+00  -3.76979654218102e-01   4.07994781267105e-02   5.39880865756626e-02   3.94568329147499e-01   4.65898498287642e-02
  5.45712137335152e+00  -3.71884020692860e-01   4.77024921382035e-02   5.83549731260497e-02   3.91559148213140e-01   4.12873612730147e-02
  5.51169158708504e+00  -3.66778973952722e-01   5.45736832280233e-02   6.26716142812410e-02   3.88497701925712e-01   3.59621176782817e-02
  5.56626180081855e+00  -3.61668534300389e-01   6.14090455884938e-02   6.69349569342842e-02   3.85387026663890e-01   3.06172972313803e-02
  5.62083201455207e+00  -3.56556539543728e-01   6.82047294506397e-02   7.11420703984590e-02   3.82230086786360e-01   2.52560137050218e-02
  5.67540222828558e+00  -3.51446650113269e-01   7.49570386044562e-02   7.52901449712001e-02   3.79029774839521e-01   1.98813159740021e-02
  5.72997244201910e+00  -3.46342354136158e-01   8.16624278569522e-02   7.93764904290747e-02   3.75788911846687e-01   1.44961876205026e-02
  5.78454265575261e+00  -3.41246972459938e-01   8.83175004354614e-02   8.33985344595385e-02   3.72510247673101e-01   9.10354662417126e-03
  5.83911286948613e+00  -3.36163663620192e-01   9.49190053432671e-02   8.73538210349007e-02   3.69196461461399e-01   3.70624513280579e-03
  5.89368308321964e+00  -3.31095428746701e-01   1.01463834674166e-01   9.12400087336577e-02   3.65850162132388e-01  -1.69293069038311e-03
  5.94825329695316e+00  -3.26045116403357e-01   1.07949020892196e-01   9.50548690140890e-02   3.62473888946278e-01  -7.09126074680399e-03
  6.00282351068668e+00  -3.21015427357595e-01   1.14371734082366e-01   9.87962844447617e-02   3.59070112119746e-01  -1.24860910135435e-02
  6.05739372442019e+00  -3.16008919275636e-01   1.20729279177887e-01   1.02462246896349e-01   3.55641233494441e-01  -1.78748334890450e-02
  6.11196393815371e+00  -3.11028011340253e-01   1.27019093169022e-01   1.06050855698942e-01   3.52189587252775e-01  -2.32549660768644e-02
  6.16653415188722e+00  -3.06074988788239e-01   1.33238742298400e-01   1.09560315768817e-01   3.48717440677031e-01  -2.86240324108323e-02
  6.22110436562074e+00  -3.01152007365142e-01   1.39385919247287e-01   1.12988935708411e-01   3.45226994948066e-01  -3.39796416248252e-02
  6.27567457935425e+00  -2.96261097695186e-01   1.45458440317047e-01   1.16335125883063e-01   3.41720385980032e-01  -3.93194680702252e-02
  6.33024479308777e+00  -2.91404169564653e-01   1.51454242609727e-01   1.19597396477893e-01   3.38199685287774e-01  -4.46412509840329e-02
  6.38481500682128e+00  -2.86583016117322e-01   1.57371381211462e-01   1.22774355537995e-01   3.34666900883702e-01  -4.99427941104814e-02
  6.43938522055480e+00  -2.81799317960819e-01   1.63208026382122e-01   1.25864706994978e-01   3.31123978201132e-01  -5.52219652788918e-02
  6.49395543428831e+00  -2.77054647183037e-01   1.68962460754411e-01   1.28867248682682e-01   3.27572801041248e-01  -6.04766959404008e-02
  6.54852564802183e+00  -2.72350471278010e-01   1.74633076545398e-01   1.31780870344797e-01   3.24015192540976e-01  -6.57049806660916e-02
  6.60309586175534e+00  -2.67688156980855e-01   1.80218372783234e-01   1.34604551636892e-01   3.20452916159243e-01  -7.09048766089562e-02
  6.65766607548886e+00  -2.63068974011600e-01   1.85716952551630e-01   1.37337360125288e-01   3.16887676679199e-01  -7.60745029320243e-02
  6.71223628922237e+00  -2.58494098727923e-01   1.91127520254481e-01   1.39978449285024e-01   3.13321121224149e-01  -8.12120402048967e-02
  6.76680650295589e+00  -2.53964617686982e-01   1.96448878902813e-01   1.42527056499060e-01   3.09754840285049e-01  -8.63157297708350e-02
  6.82137671668940e+00  -2.49481531116677e-01   2.01679927426104e-01   1.44982501060717e-01   3.06190368757554e-01  -9.13838730864701e-02
  6.87594693042292e+00  -2.45045756296856e-01   2.06819658009823e-01   1.47344182181266e-01   3.02629186986730e-01  -9.64148310361079e-02
  6.93051714415643e+00  -2.40658130851062e-01   2.11867153460925e-01   1.49611577004419e-01   2.99072721817628e-01  -1.01407023222530e-01
  6.98508735788995e+00  -2.36319415949590e-01   2.16821584602852e-01   1.51784238629421e-01   2.95522347650075e-01  -1.06358927236108e-01
  7.03965757162347e+00  -2.32030299424692e-01   2.21682207701483e-01   1.53861794144287e-01   2.91979387496074e-01  -1.11269077903974e-01
  7.09422778535698e+00  -2.27791398798879e-01   2.26448361923336e-01   1.55843942670672e-01   2.88445114038376e-01  -1.16136066520921e-01
  7.14879799909050e+00  -2.23603264227370e-01   2.31119466827211e-01   1.57730453421728e-01   2.84920750688808e-01  -1.20958540063618e-01
  7.20336821282401e+00  -2.19466381355785e-01   2.35695019890331e-01   1.59521163774256e-01   2.81407472645093e-01  -1.25735200389694e-01
  7.25793842655753e+00  -2.15381174094284e-01   2.40174594069941e-01   1.61215977356334e-01   2.77906407944931e-01  -1.30464803423128e-01
  7.31250864029104e+00  -2.11348007309390e-01   2.44557835401233e-01   1.62814862151553e-01   2.74418638516241e-01  -1.35146158327364e-01
  7.36707885402456e+00  -2.07367189434800e-01   2.48844460632336e-01   1.64317848620879e-01   2.70945201222478e-01  -1.39778126667482e-01
  7.42164906775807e+00  -2.03438975002532e-01   2.53034254897063e-01   1.65725027843137e-01   2.67487088902087e-01  -1.44359621562707e-01
  7.47621928149159e+00  -1.99563567095798e-01   2.57127069425960e-01   1.67036549674979e-01   2.64045251401151e-01  -1.48889606830469e-01
  7.53078949522510e+00  -1.95741119725028e-01   2.61122819296199e-01   1.68252620931184e-01   2.60620596598421e-01  -1.53367096123195e-01
  7.58535970895862e+00  -1.91971740128494e-01   2.65021481220697e-01   1.69373503586044e-01   2.57213991421925e-01  -1.57791152058929e-01
  7.63992992269213e+00  -1.88255490999024e-01   2.68823091376839e-01   1.70399512996534e-01   2.53826262856449e-01  -1.62160885346854e-01
  7.69450013642565e+00  -1.84592392638284e-01   2.72527743275071e-01   1.71331016147911e-01   2.50458198941234e-01  -1.66475453908719e-01
  7.74907035015916e+00  -1.80982425040168e-01   2.76135585667592e-01   1.72168429922325e-01   2.47110549757258e-01  -1.70734061997139e-01
  7.80364056389268e+00  -1.77425529904788e-01   2.79646820497289e-01   1.72912219390977e-01   2.43784028403571e-01  -1.74935959311675e-01
