# r(a.u.)  R_2s  R_3s  R_4s  R_2p  R_3p
1.00000000000000e-04 1.23247784491830e-02 6.08275743672168e-03 3.77752423482174e-03 1.85303398758991e-05 1.09892800290091e-05
7.60046252890806e-03 2.41022193355667e-02 1.18953083166913e-02 7.38723044059630e-03 7.32983277620542e-05 4.34689405036462e-05
1.51009250578161e-02 3.53515825142315e-02 1.74470888629106e-02 1.08349657390129e-02 1.63109091242415e-04 9.67300733032567e-05
2.26013875867242e-02 4.60915095707498e-02 2.27472342931965e-02 1.41263910961579e-02 2.86814874118848e-04 1.70091515103163e-04
3.01018501156322e-02 5.63400351313814e-02 2.78045842063651e-02 1.72669846309489e-02 4.43312985168693e-04 2.62898641532022e-04
3.76023126445403e-02 6.61145989462636e-02 3.26276883580684e-02 2.02620451670654e-02 6.31544167991206e-04 3.74522408834002e-04
4.51027751734483e-02 7.54320586098337e-02 3.72248127591275e-02 2.31166959866417e-02 8.50491072350186e-04 5.04358454918162e-04
5.26032377023564e-02 8.43087027965217e-02 4.16039460359955e-02 2.58358887482044e-02 1.09917677167677e-03 6.51826227255363e-04
6.01037002312645e-02 9.27602649023905e-02 4.57728059992017e-02 2.84244075351872e-02 1.37666331247470e-03 8.16368129264679e-04
6.76041627601725e-02 1.00801936994958e-01 4.97388463713188e-02 3.08868730048960e-02 1.68205029198152e-03 9.97448683075781e-04
7.51046252890806e-02 1.08448383983999e-01 5.35092636311966e-02 3.32277466110155e-02 2.01447346384557e-03 1.19455370855642e-03
8.26050878179886e-02 1.15713757935751e-01 5.70910039359496e-02 3.54513348757031e-02 2.37310337273889e-03 1.40718951917490e-03
9.01055503468967e-02 1.22611712461751e-01 6.04907700865164e-02 3.75617936899949e-02 2.75714401916271e-03 1.63488213546300e-03
9.76060128758047e-02 1.29155417121490e-01 6.37150285065491e-02 3.95631326237016e-02 3.16583155570650e-03 1.87717651684549e-03
1.05106475404713e-01 1.35357571785374e-01 6.67700162079743e-02 4.14592192281930e-02 3.59843301588804e-03 2.13363581252139e-03
1.12606937933621e-01 1.41230420911062e-01 6.96617477198257e-02 4.32537833174954e-02 4.05424507651442e-03 2.40384063196999e-03
1.20107400462529e-01 1.46785767692218e-01 7.23960219598991e-02 4.49504212149569e-02 4.53259285430051e-03 2.68738833553333e-03
1.27607862991437e-01 1.52034988044171e-01 7.49784290314589e-02 4.65525999544022e-02 5.03282873728144e-03 2.98389234540707e-03
1.35108325520345e-01 1.56989044395841e-01 7.74143569296437e-02 4.80636614261979e-02 5.55433125136655e-03 3.29298147725935e-03
1.42608788049253e-01 1.61658499261726e-01 7.97089981444078e-02 4.94868264600105e-02 6.09650396220917e-03 3.61429929259343e-03
1.50109250578161e-01 1.66053528571718e-01 8.18673561488047e-02 5.08251988372656e-02 6.65877441240999e-03 3.94750347187680e-03
1.57609713107069e-01 1.70183934740141e-01 8.38942517631967e-02 5.20817692274179e-02 7.24059309393206e-03 4.29226520837594e-03
1.65110175635977e-01 1.74059159458564e-01 8.57943293875705e-02 5.32594190431360e-02 7.84143245548276e-03 4.64826862256230e-03
1.72610638164885e-01 1.77688296199899e-01 8.75720630955697e-02 5.43609242103959e-02 8.46078594450948e-03 5.01521019689053e-03
1.80111100693793e-01 1.81080102423824e-01 8.92317625851372e-02 5.53889588502755e-02 9.09816708336305e-03 5.39279823069414e-03
1.87611563222701e-01 1.84243011475915e-01 9.07775789818097e-02 5.63460988699520e-02 9.75310857910176e-03 5.78075231489531e-03
1.95112025751609e-01 1.87185144174904e-01 9.22135104917214e-02 5.72348254610435e-02 1.04251614663411e-02 6.17880282618475e-03
2.02612488280518e-01 1.89914320084319e-01 9.35434079022877e-02 5.80575285039992e-02 1.11138942824958e-02 6.58669044029273e-03
2.10112950809426e-01 1.92438068466378e-01 9.47709799293405e-02 5.88165098777419e-02 1.18188922747142e-02 7.00416566394334e-03
2.17613413338334e-01 1.94763638917418e-01 9.58997984102004e-02 5.95139866742137e-02 1.25397566377642e-02 7.43098838506103e-03
2.25113875867242e-01 1.96898011685427e-01 9.69333033427957e-02 6.01520943178616e-02 1.32761037821009e-02 7.86692744077877e-03
2.32614338396150e-01 1.98847907671313e-01 9.78748077714889e-02 6.07328895904455e-02 1.40275646313195e-02 8.31176020278311e-03
2.40114800925058e-01 2.00619798116536e-01 9.87275025207492e-02 6.12583535618482e-02 1.47937839481812e-02 8.76527217952008e-03
2.47615263453966e-01 2.02219913980521e-01 9.94944607782301e-02 6.17303944278276e-02 1.55744196883874e-02 9.22725663477807e-03
2.55115725982874e-01 2.03654255012029e-01 1.00178642529166e-01 6.21508502558776e-02 1.63691423812665e-02 9.69751422215930e-03
2.62616188511782e-01 2.04928598519250e-01 1.00782898844315e-01 6.25214916405539e-02 1.71776345365406e-02 1.01758526349490e-02
2.70116651040690e-01 2.06048507843892e-01 1.01309976023937e-01 6.28440242697882e-02 1.79995900763339e-02 1.06620862708915e-02
2.77617113569598e-01 2.07019340545022e-01 1.01762519600510e-01 6.31200914038520e-02 1.88347137915920e-02 1.11560359113848e-02
2.85117576098506e-01 2.07846256298715e-01 1.02143078203089e-01 6.33512762687438e-02 1.96827208220872e-02 1.16575284146081e-02
2.92618038627414e-01 2.08534224519919e-01 1.02454107286344e-01 6.35391043658740e-02 2.05433361591941e-02 1.21663964221024e-02
3.00118501156322e-01 2.09088031713125e-01 1.02697972727437e-01 6.36850456999896e-02 2.14162941706299e-02 1.26824780783311e-02
3.07618963685230e-01 2.09512288558670e-01 1.02876954294010e-01 6.37905169273493e-02 2.23013381463697e-02 1.32056167627543e-02
3.15119426214138e-01 2.09811436741565e-01 1.02993248986601e-01 6.38568834261967e-02 2.31982198649576e-02 1.37356608339596e-02
3.22619888743046e-01 2.09989755529904e-01 1.03048974258879e-01 6.38854612916150e-02 2.41066991794555e-02 1.42724633854000e-02
3.30120351271954e-01 2.10051368109902e-01 1.03046171119094e-01 6.38775192568667e-02 2.50265436222829e-02 1.48158820123024e-02
3.37620813800863e-01 2.10000247684669e-01 1.02986807116178e-01 6.38342805433288e-02 2.59575280282228e-02 1.53657785893161e-02
3.45121276329771e-01 2.09840223343795e-01 1.02872779213917e-01 6.37569246411387e-02 2.68994341748853e-02 1.59220190584856e-02
3.52621738858679e-01 2.09574985710818e-01 1.02705916556603e-01 6.36465890226545e-02 2.78520504399396e-02 1.64844732271403e-02
3.60122201387587e-01 2.09208092375548e-01 1.02487983129563e-01 6.35043707908237e-02 2.88151714744454e-02 1.70530145753062e-02
3.67622663916495e-01 2.08742973118182e-01 1.02220680317908e-01 6.33313282645313e-02 2.97885978916317e-02 1.76275200722556e-02
3.75123126445403e-01 2.08182934932037e-01 1.01905649366826e-01 6.31284825029735e-02 3.07721359704939e-02 1.82078700018226e-02
3.82623588974311e-01 2.07531166851637e-01 1.01544473746672e-01 6.28968187710756e-02 3.17655973735970e-02 1.87939477961227e-02
3.90124051503219e-01 2.06790744592732e-01 1.01138681426081e-01 6.26372879479362e-02 3.27687988784930e-02 1.93856398773288e-02
3.97624514032127e-01 2.05964635010771e-01 1.00689747056232e-01 6.23508078802455e-02 3.37815621221817e-02 1.99828355071639e-02
4.05124976561035e-01 2.05055700384136e-01 1.00199094069375e-01 6.20382646825860e-02 3.48037133580597e-02 2.05854266437839e-02
4.12625439089943e-01 2.04066702528369e-01 9.96680966946078e-02 6.17005139864803e-02 3.58350832248264e-02 2.11933078057369e-02
4.20125901618851e-01 2.03000306747424e-01 9.90980818938856e-02 6.13383821400110e-02 3.68755065268285e-02 2.18063759426912e-02
4.27626364147759e-01 2.01859085627865e-01 9.84903312211059e-02 6.09526673597895e-02 3.79248220253493e-02 2.24245303126416e-02
4.35126826676667e-01 2.00645522681747e-01 9.78460826070934e-02 6.05441408370076e-02 3.89828722403619e-02 2.30476723653084e-02
4.42627289205575e-01 1.99362015843779e-01 9.71665320731978e-02 6.01135477992585e-02 4.00495032622853e-02 2.36757056314577e-02
4.50127751734483e-01 1.98010880828197e-01 9.64528353761599e-02 5.96616085297654e-02 4.11245645733008e-02 2.43085356178794e-02
4.57628214263391e-01 1.96594354350624e-01 9.57061095868170e-02 5.91890193456124e-02 4.22079088777994e-02 2.49460697077720e-02
4.65128676792299e-01 1.95114597220032e-01 9.49274346051455e-02 5.86964535365209e-02 4.32993919415519e-02 2.55882170662883e-02
4.72629139321208e-01 1.93573697305763e-01 9.41178546140609e-02 5.81845622656717e-02 4.43988724392046e-02 2.62348885510118e-02
4.80129601850116e-01 1.91973672384417e-01 9.32783794743207e-02 5.76539754340236e-02 4.55062118097226e-02 2.68859966271358e-02
4.87630064379024e-01 1.90316472871239e-01 9.24099860627998e-02 5.71053025095340e-02 4.66212741194161e-02 2.75414552871326e-02
4.95130526907932e-01 1.88603984440523e-01 9.15136195563350e-02 5.65391333226415e-02 4.77439259322004e-02 2.82011799747040e-02
5.02630989436840e-01 1.86838030539344e-01 9.05901946632617e-02 5.59560388293258e-02 4.88740361867526e-02 2.88650875128144e-02
5.10131451965748e-01 1.85020374798846e-01 8.96405968046938e-02 5.53565718430141e-02 5.00114760802446e-02 2.95330960356167e-02
5.17631914494656e-01 1.83152723347108e-01 8.86656832475288e-02 5.47412677365620e-02 5.11561189583433e-02 3.02051249240878e-02
5.25132377023564e-01 1.81236727027520e-01 8.76662841910893e-02 5.41106451154936e-02 5.23078402111811e-02 3.08810947451979e-02
5.32632839552472e-01 1.79273983526423e-01 8.66432038092460e-02 5.34652064636417e-02 5.34665171750147e-02 3.15609271944465e-02
5.40133302081380e-01 1.77266039413644e-01 8.55972212498021e-02 5.28054387622930e-02 5.46320290392991e-02 3.22445450416033e-02
5.47633764610288e-01 1.75214392099450e-01 8.45290915928514e-02 5.21318140838974e-02 5.58042567589168e-02 3.29318720795002e-02
5.55134227139196e-01 1.73120491711268e-01 8.34395467697645e-02 5.14447901613676e-02 5.69830829713145e-02 3.36228330757267e-02
5.62634689668104e-01 1.70985742893432e-01 8.23292964443932e-02 5.07448109339534e-02 5.81683919183063e-02 3.43173537270873e-02
5.70135152197012e-01 1.68811506533088e-01 8.11990288580247e-02 5.00323070706405e-02 5.93600693723172e-02 3.50153606166859e-02
5.77635614725920e-01 1.66599101415250e-01 8.00494116395607e-02 4.93076964719879e-02 6.05580025668480e-02 3.57167811735068e-02
5.85136077254828e-01 1.64349805809921e-01 7.88810925823401e-02 4.85713847512826e-02 6.17620801309525e-02 3.64215436343705e-02
5.92636539783736e-01 1.62064858994042e-01 7.76947003889695e-02 4.78237656958572e-02 6.29721920275274e-02 3.71295770081427e-02
6.00137002312645e-01 1.59745462710964e-01 7.64908453854740e-02 4.70652217093849e-02 6.41882294952240e-02 3.78408110420874e-02
6.07637464841553e-01 1.57392782570001e-01 7.52701202060297e-02 4.62961242359324e-02 6.54100849937996e-02 3.85551761902517e-02
6.15137927370461e-01 1.55007949388538e-01 7.40331004494906e-02 4.55168341665239e-02 6.66376521527337e-02 3.92726035837824e-02
6.22638389899369e-01 1.52592060479077e-01 7.27803453088747e-02 4.47277022289369e-02 6.78708257229431e-02 3.99930250030733e-02
6.30138852428277e-01 1.50146180883490e-01 7.15123981749286e-02 4.39290693614246e-02 6.91095015314365e-02 4.07163728516501e-02
6.37639314957185e-01 1.47671344556682e-01 7.02297872148460e-02 4.31212670710317e-02 7.03535764387557e-02 4.14425801317019e-02
6.45139777486093e-01 1.45168555501747e-01 6.89330259271718e-02 4.23046177771428e-02 7.16029482990614e-02 4.21715804211743e-02
6.52640240015001e-01 1.42638788858665e-01 6.76226136738830e-02 4.14794351408789e-02 7.28575159227212e-02 4.29033078523413e-02
6.60140702543909e-01 1.40082991948441e-01 6.62990361905986e-02 4.06460243809306e-02 7.41171790412711e-02 4.36376970917775e-02
6.67641165072817e-01 1.37502085274583e-01 6.49627660758305e-02 3.98046825763962e-02 7.53818382746228e-02 4.43746833216567e-02
6.75141627601725e-01 1.34896963483671e-01 6.36142632601523e-02 3.89556989571664e-02 7.66513951003971e-02 4.51142022223045e-02
6.82642090130633e-01 1.32268496286748e-01 6.22539754561264e-02 3.80993551823776e-02 7.79257518252690e-02 4.58561899559382e-02
6.90142552659541e-01 1.29617529343165e-01 6.08823385897963e-02 3.72359256074344e-02 7.92048115582146e-02 4.66005831515273e-02
6.97643015188449e-01 1.26944885108460e-01 5.94997772145170e-02 3.63656775400805e-02 8.04884781855568e-02 4.73473188907155e-02
7.05143477717357e-01 1.24251363647771e-01 5.81067049078665e-02 3.54888714859785e-02 8.17766563477095e-02 4.80963346947424e-02
7.12643940246265e-01 1.21537743416246e-01 5.67035246523485e-02 3.46057613842396e-02 8.30692514175267e-02 4.88475685123110e-02
7.20144402775173e-01 1.18804782007820e-01 5.52906292005691e-02 3.37165948333274e-02 8.43661694801654e-02 4.96009587083466e-02
7.27644865304081e-01 1.16053216873702e-01 5.38684014255426e-02 3.28216133077393e-02 8.56673173143781e-02 5.03564440535963e-02
7.35145327832990e-01 1.13283766011841e-01 5.24372146567507e-02 3.19210523658574e-02 8.69726023751520e-02 5.11139637150211e-02
7.42645790361898e-01 1.10497128628594e-01 5.09974330025591e-02 3.10151418493390e-02 8.82819327776172e-02 5.18734572469331e-02
7.50146252890806e-01 1.07693985773768e-01 4.95494116595648e-02 3.01041060744056e-02 8.95952172821514e-02 5.26348645828369e-02
7.57646715419714e-01 1.04875000950159e-01 4.80934972094279e-02 2.91881640153722e-02 9.09123652806096e-02 5.33981260279297e-02
7.65147177948622e-01 1.02040820698659e-01 4.66300279037161e-02 2.82675294807456e-02 9.22332867836115e-02 5.41631822522233e-02
7.72647640477530e-01 9.91920751599635e-02 4.51593339372679e-02 2.73424112822056e-02 9.35578924088251e-02 5.49299742842494e-02
7.80148103006438e-01 9.63293786138718e-02 4.36817377105626e-02 2.64130133967703e-02 9.48860933701835e-02 5.56984435053112e-02
7.87648565535346e-01 9.34533299971139e-02 4.21975540815584e-02 2.54795351224347e-02 9.62178014679795e-02 5.64685316442499e-02
7.95149028064254e-01 9.05645134006206e-02 4.07070906074482e-02 2.45421712275590e-02 9.75529290797828e-02 5.72401807726903e-02
8.02649490593162e-01 8.76634985470985e-02 3.92106477767574e-02 2.36011120942711e-02 9.88913891521275e-02 5.80133333007380e-02
8.10149953122070e-01 8.47508412497413e-02 3.77085192321933e-02 2.26565438561370e-02 1.00233095192921e-01 5.87879319730968e-02
8.17650415650978e-01 8.18270838528751e-02 3.62009919846376e-02 2.17086485303425e-02 1.01577961264530e-01 5.95639198655798e-02
8.25150878179886e-01 7.88927556552969e-02 3.46883466186581e-02 2.07576041446192e-02 1.02925901977493e-01 6.03412403819871e-02
8.32651340708794e-01 7.59483733170386e-02 3.31708574898965e-02 1.98035848591365e-02 1.04276832484825e-01 6.11198372513262e-02
8.40151803237702e-01 7.29944412502535e-02 3.16487929146791e-02 1.88467610835744e-02 1.05630668476870e-01 6.18996545253509e-02
8.47652265766610e-01 7.00314519948951e-02 3.01224153521768e-02 1.78872995895801e-02 1.06987326176667e-01 6.26806365763955e-02
8.55152728295518e-01 6.70598865798288e-02 2.85919815794324e-02 1.69253636188063e-02 1.08346722335785e-01 6.34627280954853e-02
8.62653190824426e-01 6.40802148699897e-02 2.70577428595552e-02 1.59611129867153e-02 1.09708774230605e-01 6.42458740907011e-02
8.70153653353334e-01 6.10928959001737e-02 2.55199451033737e-02 1.49947041823319e-02 1.11073399659015e-01 6.50300198857797e-02
8.77654115882243e-01 5.80983781960252e-02 2.39788290248210e-02 1.40262904641142e-02 1.12440516937472e-01 6.58151111189328e-02
8.85154578411151e-01 5.50971000827574e-02 2.24346302903208e-02 1.30560219521077e-02 1.13810044898429e-01 6.66010937418664e-02
8.92655040940059e-01 5.20894899821234e-02 2.08875796624243e-02 1.20840457165409e-02 1.15181902888073e-01 6.73879140189855e-02
9.00155503468967e-01 4.90759666981287e-02 1.93379031379441e-02 1.11105058630115e-02 1.16556010764373e-01 6.81755185267681e-02
9.07655965997875e-01 4.60569396919594e-02 1.77858220808156e-02 1.01355436144089e-02 1.17932288895390e-01 6.89638541532949e-02
9.15156428526783e-01 4.30328093465773e-02 1.62315533499081e-02 9.15929738970997e-03 1.19310658157847e-01 6.97528680979209e-02
9.22656891055691e-01 4.00039672214138e-02 1.46753094220008e-02 8.18190287978148e-03 1.20691039935920e-01 7.05425078710762e-02
9.30157353584599e-01 3.69707962975788e-02 1.31172985101253e-02 7.20349312031456e-03 1.22073356120248e-01 7.13327212941834e-02
9.37657816113507e-01 3.39336712139789e-02 1.15577246774706e-02 6.22419856201296e-03 1.23457529107126e-01 7.21234564996817e-02
9.45158278642415e-01 3.08929584947264e-02 9.99678794703815e-03 5.24414713815083e-03 1.24843481797869e-01 7.29146619311452e-02
9.52658741171323e-01 2.78490167682005e-02 8.43468440722393e-03 4.26346432961093e-03 1.26231137598337e-01 7.37062863434870e-02
9.60159203700231e-01 2.48021969781096e-02 6.87160631350074e-03 3.28227322750952e-03 1.27620420418591e-01 7.44982788032386e-02
9.67659666229139e-01 2.17528425868871e-02 5.30774218636274e-03 2.30069459350940e-03 1.29011254672684e-01 7.52905886888964e-02
9.75160128758047e-01 1.87012897717394e-02 3.74327690568992e-03 1.31884691791857e-03 1.30403565278548e-01 7.60831656913266e-02
9.82660591286955e-01 1.56478676136503e-02 2.17839180168211e-03 3.36846475667287e-04 1.31797277657990e-01 7.68759598142204e-02
9.90161053815864e-01 1.25928982796343e-02 6.13264742506222e-04 -6.45192619747176e-04 1.33192317736765e-01 7.76689213745935e-02
9.97661516344772e-01 9.53669719851796e-03 -9.51929781206081e-04 -1.62715836426299e-03 1.34588611944726e-01 7.84620010033211e-02
1.00516197887368e+00 6.47957323051603e-03 -2.51702057487864e-03 -2.60894081312185e-03 1.35986087216030e-01 7.92551496457040e-02
1.01266244140259e+00 3.42182883085892e-03 -4.08183966140335e-03 -3.59043203252460e-03 1.37384670989404e-01 8.00483185620584e-02
1.02016290393150e+00 3.63760207715698e-04 -5.64622220532453e-03 -4.57152605299978e-03 1.38784291208445e-01 8.08414593283242e-02
1.02766336646040e+00 -2.69434252535258e-03 -7.21000643967991e-03 -5.55211882441356e-03 1.40184876321961e-01 8.16345238366870e-02
1.03516382898931e+00 -5.75219520218528e-03 -8.77303359538804e-03 -6.53210817255280e-03 1.41586355284329e-01 8.24274642962085e-02
1.04266429151822e+00 -8.80951946184543e-03 -1.03351478330766e-02 -7.51139375721558e-03 1.42988657555876e-01 8.32202332334611e-02
1.05016475404713e+00 -1.18660426112685e-02 -1.18961961772508e-02 -8.48987703174684e-03 1.44391713103271e-01 8.40127834931619e-02
1.05766521657604e+00 -1.49214974925402e-02 -1.34560284527048e-02 -9.46746120395906e-03 1.45795452399916e-01 8.48050682388034e-02
1.06516567910494e+00 -1.79756223546145e-02 -1.50144972230842e-02 -1.04440511983806e-02 1.47199806426337e-01 8.55970409532763e-02
1.07266614163385e+00 -2.10281607292930e-02 -1.65714577315113e-02 -1.14195536197772e-02 1.48604706670571e-01 8.63886554394809e-02
1.08016660416276e+00 -2.40788613112913e-02 -1.81267678431878e-02 -1.23938767178933e-02 1.50010085128530e-01 8.71798658209258e-02
1.08766706669167e+00 -2.71274778422299e-02 -1.96802879898943e-02 -1.33669303533643e-02 1.51415874304358e-01 8.79706265423084e-02
1.09516752922058e+00 -3.01737689983890e-02 -2.12318811163091e-02 -1.43386259647504e-02 1.52822007210755e-01 8.87608923700772e-02
1.10266799174948e+00 -3.32174982820782e-02 -2.27814126280725e-02 -1.53088765366466e-02 1.54228417369286e-01 8.95506183929718e-02
1.11016845427839e+00 -3.62584339164749e-02 -2.43287503415248e-02 -1.62775965688250e-02 1.55635038810644e-01 9.03397600225397e-02
1.11766891680730e+00 -3.92963487437942e-02 -2.58737644350505e-02 -1.72447020463671e-02 1.57041806074900e-01 9.11282729936263e-02
1.12516937933621e+00 -4.23310201266561e-02 -2.74163274019643e-02 -1.82101104107458e-02 1.58448654211694e-01 9.19161133648388e-02
1.13266984186512e+00 -4.53622298525251e-02 -2.89563140048752e-02 -1.91737405318186e-02 1.59855518780403e-01 9.27032375189796e-02
1.14017030439402e+00 -4.83897640410987e-02 -3.04936012314710e-02 -2.01355126806946e-02 1.61262335850262e-01 9.34896021634502e-02
1.14767076692293e+00 -5.14134130545296e-02 -3.20280682516651e-02 -2.10953485034419e-02 1.62669042000436e-01 9.42751643306227e-02
1.15517122945184e+00 -5.44329714103709e-02 -3.35595963760505e-02 -2.20531709955984e-02 1.64075574320052e-01 9.50598813781785e-02
1.16267169198075e+00 -5.74482376971359e-02 -3.50880690156112e-02 -2.30089044774571e-02 1.65481870408181e-01 9.58437109894133e-02
1.17017215450966e+00 -6.04590144923718e-02 -3.66133716426380e-02 -2.39624745700921e-02 1.66887868373771e-01 9.66266111735069e-02
